Time,Signal,MaxFrequency
0.0,0.0,20.0
0.001,0.1630234162342388,20.0
0.002,0.32401669269278754,20.0
0.003,0.4809809375581596,20.0
0.004,0.6319792632224723,20.0
0.005,0.7751665668781977,20.0
0.006,0.9088178668780699,20.0
0.007,1.0313547490656862,20.0
0.008,1.14136950707905,20.0
0.009000000000000001,1.2376465969890063,20.0
0.01,1.3191810689798316,20.0
0.011,1.3851936864423513,20.0
0.012,1.4351424950792044,20.0
0.013000000000000001,1.4687306605936041,20.0
0.014,1.4859104523644495,20.0
0.015,1.4868833112741502,20.0
0.016,1.472096001592776,20.0
0.017,1.4422329085595338,20.0
0.018000000000000002,1.39820460406649,20.0
0.019,1.3411328616816451,20.0
0.02,1.272332358221162,20.0
0.021,1.1932893513110006,20.0
0.022,1.105637670042852,20.0
0.023,1.0111323981763027,20.0
0.024,0.9116216657009231,20.0
0.025,0.8090169943749476,20.0
0.026000000000000002,0.7052626656315084,20.0
0.027,0.6023045946298373,20.0
0.028,0.5020592019848478,20.0
0.029,0.4063827747118291,20.0
0.03,0.31704180017354655,20.0
0.031,0.23568474143718154,20.0
0.032,0.16381569968082266,20.0
0.033,0.10277037949272905,20.0
0.034,0.05369473655135604,20.0
0.035,0.017526644833477545,20.0
0.036000000000000004,-0.00501912716049524,20.0
0.037,-0.013462393899066227,20.0
0.038,-0.007565302731620371,20.0
0.039,0.012663766252611453,20.0
0.04,0.04697021213311792,20.0
0.041,0.09485713681728036,20.0
0.042,0.15559311870180115,20.0
0.043000000000000003,0.22822371383022844,20.0
0.044,0.31158650321448356,20.0
0.045,0.4043294490220045,20.0
0.046,0.5049322701061527,20.0
0.047,0.6117304996995689,20.0
0.048,0.7229418457498195,20.0
0.049,0.8366944380217811,20.0
0.05,0.9510565162951534,20.0
0.051000000000000004,1.0640670912181782,20.0
0.052000000000000005,1.173767093999313,20.0
0.053,1.2782305233696731,20.0
0.054,1.3755950982529788,20.0
0.055,1.4640919323363366,20.0
0.056,1.5420737621223408,20.0
0.057,1.608041282817931,20.0
0.058,1.6606671762191993,20.0
0.059000000000000004,1.698817451113855,20.0
0.06,1.7215697590709427,20.0
0.061,1.7282283961528708,20.0
0.062,1.7183357533161785,20.0
0.063,1.6916800342410765,20.0
0.064,1.6482991181629403,20.0
0.065,1.5884805060438434,20.0
0.066,1.5127573501606246,20.0
0.067,1.4219006289242828,20.0
0.068,1.3169075895100577,20.0
0.069,1.1989866397101947,20.0
0.07,1.0695389263941886,20.0
0.07100000000000001,0.9301368901917466,20.0
0.07200000000000001,0.7825001336779618,20.0
0.073,0.6284689826866569,20.0
0.074,0.4699761567388231,20.0
0.075,0.3090169943749479,20.0
0.076,0.14761870195302226,20.0
0.077,-0.012190890141129729,20.0
0.078,-0.1684145721702702,20.0
0.079,-0.31911650890683174,20.0
0.08,-0.4624520187281687,20.0
0.081,-0.596695909377946,20.0
0.082,-0.7202689245960194,20.0
0.083,-0.8317618856186633,20.0
0.084,-0.9299571479093572,20.0
0.085,-1.0138470358244667,20.0
0.08600000000000001,-1.082648965579904,20.0
0.08700000000000001,-1.1358170191129098,20.0
0.088,-1.1730497874035473,20.0
0.089,-1.1942943606507435,20.0
0.09,-1.1997464034600083,20.0
0.091,-1.1898463149359957,20.0
0.092,-1.1652715353092247,20.0
0.093,-1.1269251214890403,20.0
0.094,-1.0759207727658906,20.0
0.095,-1.0135645438575462,20.0
0.096,-0.9413335347232026,20.0
0.097,-0.8608518942329695,20.0
0.098,-0.7738645171261515,20.0
0.099,-0.682208850052492,20.0
0.1,-0.5877852522924735,20.0
0.101,-0.4925263795260296,20.0
0.10200000000000001,-0.3983660744045897,20.0
0.10300000000000001,-0.3072082554363459,20.0
0.10400000000000001,-0.22089629569713387,20.0
0.105,-0.14118337512893864,20.0
0.106,-0.06970427480741581,20.0
0.107,-0.007949058791233976,20.0
0.108,0.04276094063113822,20.0
0.109,0.08129445483759212,20.0
0.11,0.10672859079313868,20.0
0.111,0.11836383353585367,20.0
0.112,0.11573550199331817,20.0
0.113,0.09862147686190081,20.0
0.114,0.06704607810777108,20.0
0.115,0.021280030406902295,20.0
0.116,-0.038163483426844946,20.0
0.117,-0.11053661924462777,20.0
0.11800000000000001,-0.1948683960574853,20.0
0.11900000000000001,-0.2899797668578886,20.0
0.12,-0.39450199843621514,20.0
0.121,-0.5068980706361975,20.0
0.122,-0.6254867578353303,20.0
0.123,-0.7484690130957582,20.0
0.124,-0.8739562390762851,20.0
0.125,-0.9999999999999993,20.0
0.126,-1.1246227062048921,20.0
0.127,-1.2458487874254685,20.0
0.128,-1.3617358632046872,20.0
0.129,-1.4704054188396292,20.0
0.13,-1.5700725030211613,20.0
0.131,-1.6590739787152646,20.0
0.132,-1.735894881609064,20.0
0.133,-1.7991924702486586,20.0
0.134,-1.8478175883588839,20.0
0.135,-1.8808330021834045,20.0
0.136,-1.8975284233496068,20.0
0.137,-1.8974319799946426,20.0
0.138,-1.8803179548632247,20.0
0.139,-1.846210667921524,20.0
0.14,-1.7953844417971687,20.0
0.14100000000000001,-1.7283596500944456,20.0
0.14200000000000002,-1.6458949103728904,20.0
0.14300000000000002,-1.5489755443428121,20.0
0.14400000000000002,-1.438798486664792,20.0
0.145,-1.3167538797138858,20.0
0.146,-1.1844036439005663,20.0
0.147,-1.0434573608057045,20.0
0.148,-0.8957458487343025,20.0
0.149,-0.743192846654639,20.0
0.15,-0.5877852522924741,20.0
0.151,-0.4315423829238858,20.0
0.152,-0.27648474279644336,20.0
0.153,-0.12460278886361642,20.0
0.154,0.022173813480226734,20.0
0.155,0.16200596072739948,20.0
0.156,0.29317343909148513,20.0
0.157,0.41410136406253734,20.0
0.158,0.5233843156948056,20.0
0.159,0.6198077899960432,20.0
0.16,0.7023666291302988,20.0
0.161,0.7702801408066335,20.0
0.162,0.8230036694529956,20.0
0.163,0.8602364377436339,20.0
0.164,0.8819255358774736,20.0
0.165,0.8882659967658406,20.0
0.166,0.8796969570226817,20.0
0.167,0.8568939653853669,20.0
0.168,0.8207575609555585,20.0
0.169,0.7723983024794324,20.0
0.17,0.713118485856778,20.0
0.171,0.6443908392965974,20.0
0.17200000000000001,0.5678345331990844,20.0
0.17300000000000001,0.4851888841885789,20.0
0.17400000000000002,0.3982851690816299,20.0
0.17500000000000002,0.3090169943749453,20.0
0.176,0.2193096896102136,20.0
0.177,0.13108920835694804,20.0
0.178,0.04625102830860883,20.0
0.179,-0.033370458011683535,20.0
0.18,-0.10603157819075759,20.0
0.181,-0.1701075721471812,20.0
0.182,-0.22411889604151924,20.0
0.183,-0.2667552220797461,20.0
0.184,-0.2968967547714141,20.0
0.185,-0.3136325265464641,20.0
0.186,-0.31627538329443694,20.0
0.187,-0.3043734226154665,20.0
0.188,-0.27771770354036507,20.0
0.189,-0.23634610530450673,20.0
0.19,-0.1805432735193646,20.0
0.191,-0.1108366538181852,20.0
0.192,-0.02798867478483058,20.0
0.193,0.06701479726635284,20.0
0.194,0.17297955026496326,20.0
0.195,0.28852142775138967,20.0
0.196,0.4120877500495472,20.0
0.197,0.5419814180003186,20.0
0.198,0.6763873196696037,20.0
0.199,0.8134006240895697,20.0
0.2,0.9510565162951525,20.0
0.201,1.087360905150392,20.0
0.202,1.22032162007953,20.0
0.203,1.3479796050689252,20.0
0.20400000000000001,1.4684396183095831,20.0
0.20500000000000002,1.5798999536069531,20.0
0.20600000000000002,1.6806807150718623,20.0
0.20700000000000002,1.7692501993818075,20.0
0.20800000000000002,1.8442489697058315,20.0
0.209,1.904511241749318,20.0
0.21,1.949083244723425,20.0
0.211,1.9772382677099887,20.0
0.212,1.9884881541249229,20.0
0.213,1.9825910629574772,20.0
0.214,1.9595553742968823,20.0
0.215,1.919639677423785,20.0
0.216,1.8633488414833963,20.0
0.217,1.7914262304967612,20.0
0.218,1.7048421852324012,20.0
0.219,1.6047789532945593,20.0
0.22,1.492612304758494,20.0
0.221,1.3698901229152614,20.0
0.222,1.2383083073542027,20.0
0.223,1.0996843689595468,20.0
0.224,0.955929132760117,20.0
0.225,0.8090169943749487,20.0
0.226,0.660955198572317,20.0
0.227,0.5137526238465919,20.0
0.228,0.3693885646734958,20.0
0.229,0.22978200310757096,20.0
0.23,0.09676185363621614,20.0
0.231,-0.027961350175733313,20.0
0.232,-0.14282188148508868,20.0
0.233,-0.2464229424444967,20.0
0.234,-0.3375581033392627,20.0
0.23500000000000001,-0.41522972131615865,20.0
0.23600000000000002,-0.4786640490929287,20.0
0.23700000000000002,-0.527322796262939,20.0
0.23800000000000002,-0.5609109617773397,20.0
0.23900000000000002,-0.5793808150150266,20.0
0.24,-0.582931963610476,20.0
0.241,-0.5720075079430331,20.0
0.242,-0.5472863439249805,20.0
0.243,-0.5096717364858945,20.0
0.244,-0.46027634497930725,20.0
0.245,-0.4004039377067484,20.0
0.246,-0.33152808498096,20.0
0.247,-0.2552681678111983,20.0
0.248,-0.17336308163692088,20.0
0.249,-0.08764305089437043,20.0
0.25,-8.572527594031473e-16,20.0
0.251,0.08764305089436872,20.0
0.252,0.17336308163691921,20.0
0.253,0.25526816781119677,20.0
0.254,0.33152808498095865,20.0
0.255,0.4004039377067501,20.0
0.256,0.4602763449793089,20.0
0.257,0.5096717364858936,20.0
0.258,0.5472863439249799,20.0
0.259,0.5720075079430327,20.0
0.26,0.582931963610476,20.0
0.261,0.5793808150150253,20.0
0.262,0.5609109617773385,20.0
0.263,0.5273227962629394,20.0
0.264,0.4786640490929269,20.0
0.265,0.4152297213161563,20.0
0.266,0.33755810333926295,20.0
0.267,0.24642294244449525,20.0
0.268,0.14282188148508868,20.0
0.269,0.02796135017573298,20.0
0.27,-0.09676185363621492,20.0
0.271,-0.2297820031075684,20.0
0.272,-0.3693885646734997,20.0
0.273,-0.513752623846597,20.0
0.274,-0.6609551985723177,20.0
0.275,-0.8090169943749494,20.0
0.276,-0.9559291327601188,20.0
0.277,-1.0996843689595475,20.0
0.278,-1.2383083073542034,20.0
0.279,-1.3698901229152596,20.0
0.28,-1.4926123047584916,20.0
0.281,-1.6047789532945633,20.0
0.28200000000000003,-1.7048421852324043,20.0
0.28300000000000003,-1.7914262304967612,20.0
0.28400000000000003,-1.8633488414833972,20.0
0.28500000000000003,-1.9196396774237856,20.0
0.28600000000000003,-1.9595553742968825,20.0
0.28700000000000003,-1.9825910629574772,20.0
0.28800000000000003,-1.9884881541249229,20.0
0.289,-1.977238267709989,20.0
0.29,-1.9490832447234254,20.0
0.291,-1.9045112417493204,20.0
0.292,-1.8442489697058329,20.0
0.293,-1.769250199381809,20.0
0.294,-1.6806807150718643,20.0
0.295,-1.5798999536069551,20.0
0.296,-1.4684396183095887,20.0
0.297,-1.347979605068931,20.0
0.298,-1.220321620079529,20.0
0.299,-1.0873609051503914,20.0
0.3,-0.9510565162951552,20.0
0.301,-0.8134006240895724,20.0
0.302,-0.6763873196696066,20.0
0.303,-0.5419814180003213,20.0
0.304,-0.4120877500495527,20.0
0.305,-0.28852142775139533,20.0
0.306,-0.17297955026496792,20.0
0.307,-0.06701479726635262,20.0
0.308,0.027988674784830248,20.0
0.309,0.11083665381818375,20.0
0.31,0.18054327351936328,20.0
0.311,0.23634610530450528,20.0
0.312,0.2777177035403643,20.0
0.313,0.3043734226154663,20.0
0.314,0.3162753832944383,20.0
0.315,0.31363252654646323,20.0
0.316,0.2968967547714131,20.0
0.317,0.26675522207974756,20.0
0.318,0.22411889604152024,20.0
0.319,0.1701075721471823,20.0
0.32,0.10603157819075959,20.0
0.321,0.033370458011685034,20.0
0.322,-0.04625102830860389,20.0
0.323,-0.13108920835694213,20.0
0.324,-0.21930968961021535,20.0
0.325,-0.30901699437494984,20.0
0.326,-0.39828516908163003,20.0
0.327,-0.48518888418857986,20.0
0.328,-0.5678345331990853,20.0
0.329,-0.6443908392965974,20.0
0.33,-0.7131184858567758,20.0
0.331,-0.7723983024794304,20.0
0.332,-0.8207575609555605,20.0
0.333,-0.8568939653853692,20.0
0.334,-0.8796969570226835,20.0
0.335,-0.88826599676584,20.0
0.336,-0.8819255358774737,20.0
0.337,-0.8602364377436337,20.0
0.338,-0.8230036694529945,20.0
0.339,-0.7702801408066338,20.0
0.34,-0.7023666291302995,20.0
0.341,-0.6198077899960404,20.0
0.342,-0.523384315694803,20.0
0.343,-0.4141013640625365,20.0
0.34400000000000003,-0.29317343909148325,20.0
0.34500000000000003,-0.16200596072739842,20.0
0.34600000000000003,-0.0221738134802264,20.0
0.34700000000000003,0.12460278886361503,20.0
0.34800000000000003,0.2764847427964412,20.0
0.34900000000000003,0.4315423829238828,20.0
0.35000000000000003,0.5877852522924796,20.0
0.35100000000000003,0.7431928466546438,20.0
0.352,0.8957458487342949,20.0
0.353,1.0434573608056985,20.0
0.354,1.1844036439005596,20.0
0.355,1.3167538797138794,20.0
0.356,1.4387984866647878,20.0
0.357,1.5489755443428077,20.0
0.358,1.6458949103728906,20.0
0.359,1.7283596500944465,20.0
0.36,1.7953844417971676,20.0
0.361,1.8462106679215227,20.0
0.362,1.8803179548632245,20.0
0.363,1.8974319799946424,20.0
0.364,1.8975284233496064,20.0
0.365,1.8808330021834065,20.0
0.366,1.8478175883588863,20.0
0.367,1.7991924702486575,20.0
0.368,1.7358948816090634,20.0
0.369,1.6590739787152664,20.0
0.37,1.570072503021163,20.0
0.371,1.4704054188396314,20.0
0.372,1.3617358632046892,20.0
0.373,1.2458487874254724,20.0
0.374,1.1246227062048981,20.0
0.375,1.0000000000000053,20.0
0.376,0.8739562390762841,20.0
0.377,0.7484690130957589,20.0
0.378,0.6254867578353309,20.0
0.379,0.5068980706361998,20.0
0.38,0.394501998436217,20.0
0.381,0.2899797668578905,20.0
0.382,0.19486839605748696,20.0
0.383,0.11053661924462999,20.0
0.384,0.03816348342684406,20.0
0.385,-0.021280030406902295,20.0
0.386,-0.06704607810777141,20.0
0.387,-0.09862147686190037,20.0
0.388,-0.11573550199331784,20.0
0.389,-0.11836383353585378,20.0
0.39,-0.10672859079313901,20.0
0.391,-0.08129445483759279,20.0
0.392,-0.042760940631140554,20.0
0.393,0.007949058791236308,20.0
0.394,0.06970427480741737,20.0
0.395,0.1411833751289393,20.0
0.396,0.22089629569713481,20.0
0.397,0.3072082554363471,20.0
0.398,0.3983660744045886,20.0
0.399,0.49252637952602885,20.0
0.4,0.5877852522924716,20.0
0.401,0.6822088500524961,20.0
0.402,0.773864517126154,20.0
0.403,0.8608518942329728,20.0
0.404,0.9413335347232046,20.0
0.405,1.013564543857547,20.0
0.406,1.0759207727658904,20.0
0.40700000000000003,1.1269251214890394,20.0
0.40800000000000003,1.165271535309224,20.0
0.40900000000000003,1.189846314935994,20.0
0.41000000000000003,1.1997464034600092,20.0
0.41100000000000003,1.194294360650744,20.0
0.41200000000000003,1.1730497874035464,20.0
0.41300000000000003,1.1358170191129084,20.0
0.41400000000000003,1.0826489655799028,20.0
0.41500000000000004,1.013847035824465,20.0
0.41600000000000004,0.9299571479093558,20.0
0.417,0.8317618856186676,20.0
0.418,0.7202689245960265,20.0
0.419,0.5966959093779471,20.0
0.42,0.4624520187281719,20.0
0.421,0.31911650890683596,20.0
0.422,0.16841457217027486,20.0
0.423,0.012190890141135391,20.0
0.424,-0.14761870195301438,20.0
0.425,-0.30901699437493946,20.0
0.426,-0.4699761567388139,20.0
0.427,-0.628468982686656,20.0
0.428,-0.7825001336779593,20.0
0.429,-0.9301368901917453,20.0
0.43,-1.0695389263941868,20.0
0.431,-1.1989866397101911,20.0
0.432,-1.3169075895100553,20.0
0.433,-1.4219006289242806,20.0
0.434,-1.512757350160621,20.0
0.435,-1.5884805060438407,20.0
0.436,-1.6482991181629405,20.0
0.437,-1.691680034241075,20.0
0.438,-1.7183357533161778,20.0
0.439,-1.7282283961528713,20.0
0.44,-1.7215697590709422,20.0
0.441,-1.6988174511138556,20.0
0.442,-1.6606671762192011,20.0
0.443,-1.6080412828179327,20.0
0.444,-1.542073762122339,20.0
0.445,-1.464091932336336,20.0
0.446,-1.3755950982529777,20.0
0.447,-1.2782305233696734,20.0
0.448,-1.173767093999314,20.0
0.449,-1.064067091218179,20.0
0.45,-0.9510565162951556,20.0
0.451,-0.8366944380217847,20.0
0.452,-0.7229418457498222,20.0
0.453,-0.6117304996995663,20.0
0.454,-0.5049322701061512,20.0
0.455,-0.4043294490220034,20.0
0.456,-0.31158650321448333,20.0
0.457,-0.22822371383022844,20.0
0.458,-0.15559311870180148,20.0
0.459,-0.09485713681728103,20.0
0.46,-0.046970212133118694,20.0
0.461,-0.012663766252612119,20.0
0.462,0.007565302731620482,20.0
0.463,0.013462393899066116,20.0
0.464,0.005019127160494463,20.0
0.465,-0.01752664483347799,20.0
0.466,-0.05369473655135637,20.0
0.467,-0.1027703794927296,20.0
0.468,-0.16381569968082232,20.0
0.46900000000000003,-0.2356847414371801,20.0
0.47000000000000003,-0.3170418001735493,20.0
0.47100000000000003,-0.40638277471183293,20.0
0.47200000000000003,-0.5020592019848503,20.0
0.47300000000000003,-0.6023045946298385,20.0
0.47400000000000003,-0.7052626656315104,20.0
0.47500000000000003,-0.809016994374948,20.0
0.47600000000000003,-0.9116216657009222,20.0
0.47700000000000004,-1.0111323981763025,20.0
0.47800000000000004,-1.1056376700428503,20.0
0.47900000000000004,-1.1932893513110037,20.0
0.48,-1.2723323582211599,20.0
0.481,-1.3411328616816447,20.0
0.482,-1.3982046040664882,20.0
0.483,-1.4422329085595313,20.0
0.484,-1.4720960015927758,20.0
0.485,-1.4868833112741493,20.0
0.486,-1.4859104523644482,20.0
0.487,-1.4687306605936057,20.0
0.488,-1.4351424950792055,20.0
0.489,-1.3851936864423515,20.0
0.49,-1.3191810689798342,20.0
0.491,-1.2376465969890085,20.0
0.492,-1.1413695070790517,20.0
0.493,-1.0313547490656911,20.0
0.494,-0.9088178668780745,20.0
0.495,-0.7751665668782023,20.0
0.496,-0.631979263222474,20.0
0.497,-0.48098093755816074,20.0
0.498,-0.3240166926927881,20.0
0.499,-0.16302341623424246,20.0
0.5,-3.1840816777831186e-15,20.0
0.501,0.1630234162342361,20.0
0.502,0.3240166926927819,20.0
0.503,0.48098093755815474,20.0
0.504,0.6319792632224682,20.0
0.505,0.7751665668781968,20.0
0.506,0.9088178668780695,20.0
0.507,1.0313547490656865,20.0
0.508,1.1413695070790477,20.0
0.509,1.237646596989005,20.0
0.51,1.3191810689798336,20.0
0.511,1.3851936864423493,20.0
0.512,1.4351424950792042,20.0
0.513,1.468730660593605,20.0
0.514,1.4859104523644477,20.0
0.515,1.4868833112741517,20.0
0.516,1.4720960015927766,20.0
0.517,1.4422329085595367,20.0
0.518,1.3982046040664902,20.0
0.519,1.341132861681642,20.0
0.52,1.2723323582211628,20.0
0.521,1.193289351310997,20.0
0.522,1.105637670042856,20.0
0.523,1.0111323981762994,20.0
0.524,0.9116216657009284,20.0
0.525,0.809016994374947,20.0
0.526,0.7052626656315003,20.0
0.527,0.6023045946298373,20.0
0.528,0.5020592019848428,20.0
0.529,0.4063827747118303,20.0
0.53,0.31704180017354266,20.0
0.531,0.23568474143718454,20.0
0.532,0.16381569968082033,20.0
0.533,0.10277037949273171,20.0
0.534,0.05369473655135604,20.0
0.535,0.01752664483347477,20.0
0.536,-0.00501912716049524,20.0
0.537,-0.01346239389906645,20.0
0.538,-0.007565302731620593,20.0
0.539,0.012663766252612452,20.0
0.54,0.04697021213311725,20.0
0.541,0.09485713681728203,20.0
0.542,0.15559311870179882,20.0
0.543,0.22822371383022977,20.0
0.544,0.3115865032144902,20.0
0.545,0.4043294490220053,20.0
0.546,0.5049322701061589,20.0
0.547,0.6117304996995686,20.0
0.548,0.7229418457498247,20.0
0.549,0.8366944380217793,20.0
0.55,0.9510565162951583,20.0
0.551,1.0640670912181749,20.0
0.552,1.173767093999315,20.0
0.553,1.2782305233696827,20.0
0.554,1.37559509825298,20.0
0.555,1.4640919323363424,20.0
0.556,1.5420737621223415,20.0
0.557,1.608041282817935,20.0
0.558,1.6606671762191973,20.0
0.559,1.6988174511138574,20.0
0.56,1.7215697590709416,20.0
0.561,1.7282283961528702,20.0
0.562,1.7183357533161772,20.0
0.5630000000000001,1.691680034241076,20.0
0.5640000000000001,1.6482991181629374,20.0
0.5650000000000001,1.5884805060438407,20.0
0.5660000000000001,1.5127573501606213,20.0
0.5670000000000001,1.4219006289242815,20.0
0.5680000000000001,1.316907589510052,20.0
0.5690000000000001,1.198986639710196,20.0
0.5700000000000001,1.069538926394183,20.0
0.5710000000000001,0.9301368901917353,20.0
0.5720000000000001,0.7825001336779587,20.0
0.5730000000000001,0.628468982686645,20.0
0.5740000000000001,0.4699761567388168,20.0
0.5750000000000001,0.30901699437493874,20.0
0.5760000000000001,0.1476187019530189,20.0
0.577,-0.012190890141118904,20.0
0.578,-0.16841457217026712,20.0
0.579,-0.3191165089068222,20.0
0.58,-0.4624520187281629,20.0
0.581,-0.5966959093779352,20.0
0.582,-0.7202689245960157,20.0
0.583,-0.8317618856186524,20.0
0.584,-0.9299571479093522,20.0
0.585,-1.0138470358244616,20.0
0.586,-1.0826489655798988,20.0
0.587,-1.1358170191129073,20.0
0.588,-1.173049787403547,20.0
0.589,-1.1942943606507403,20.0
0.59,-1.1997464034600092,20.0
0.591,-1.1898463149359961,20.0
0.592,-1.1652715353092273,20.0
0.593,-1.126925121489041,20.0
0.594,-1.0759207727658995,20.0
0.595,-1.013564543857548,20.0
0.596,-0.9413335347232012,20.0
0.597,-0.860851894232976,20.0
0.598,-0.7738645171261491,20.0
0.599,-0.6822088500524998,20.0
0.6,-0.5877852522924754,20.0
0.601,-0.49252637952603817,20.0
0.602,-0.39836607440459226,20.0
0.603,-0.30720825543635716,20.0
0.604,-0.22089629569713676,20.0
0.605,-0.14118337512893664,20.0
0.606,-0.06970427480741992,20.0
0.607,-0.007949058791232755,20.0
0.608,0.042760940631135,20.0
0.609,0.08129445483759157,20.0
0.61,0.10672859079313701,20.0
0.611,0.11836383353585356,20.0
0.612,0.11573550199331795,20.0
0.613,0.09862147686190215,20.0
0.614,0.06704607810777163,20.0
