Time,Signal,MaxFrequency
0.0,2.0,23.0
0.001,1.9886090532807756,23.0
0.002,1.9546553981605483,23.0
0.003,1.8987920556106235,23.0
0.004,1.8220923745713473,23.0
0.005,1.726027831569207,23.0
0.006,1.612437600402718,23.0
0.007,1.483490525823953,23.0
0.008,1.3416402933675369,23.0
0.009000000000000001,1.1895747291904906,23.0
0.01,1.030160286030324,23.0
0.011,0.8663828716170475,23.0
0.012,0.7012862519979519,23.0
0.013000000000000001,0.5379093126653949,23.0
0.014,0.3792234840662514,23.0
0.015,0.22807163452356027,23.0
0.016,0.08710970289042375,23.0
0.017,-0.04124771397617377,23.0
0.018000000000000002,-0.1548766863948029,23.0
0.019,-0.25198716333339455,23.0
0.02,-0.3311591713799411,23.0
0.021,-0.39137124870797424,23.0
0.022,-0.4320205235138329,23.0
0.023,-0.4529340206885958,23.0
0.024,-0.4543709634464528,23.0
0.025,-0.43701602444882115,23.0
0.026000000000000002,-0.4019636697238993,23.0
0.027,-0.35069392444924624,23.0
0.028,-0.2850400685673478,23.0
0.029,-0.20714893851121963,23.0
0.03,-0.11943466551982346,23.0
0.031,-0.02452681790671002,23.0
0.032,0.0747859686441405,23.0
0.033,0.17561569457689385,23.0
0.034,0.2750367860423393,23.0
0.035,0.3701486793234192,23.0
0.036000000000000004,0.45813789228198026,23.0
0.037,0.5363382856790342,23.0
0.038,0.6022882549476339,23.0
0.039,0.6537836569863185,23.0
0.04,0.6889253654581393,23.0
0.041,0.706160460071602,23.0
0.042,0.7043161880508682,23.0
0.043000000000000003,0.6826259867059206,23.0
0.044,0.6407470215473634,23.0
0.045,0.5787688713039674,23.0
0.046,0.49721317580567936,23.0
0.047,0.39702425114198187,23.0
0.048,0.27955086486632896,23.0
0.049,0.14651954836504266,23.0
0.05,3.3306690738754696e-16,23.0
0.051000000000000004,-0.15763670241065392,23.0
0.052000000000000005,-0.32376621122996935,23.0
0.053,-0.4955643403364872,23.0
0.054,-0.6700647067081366,23.0
0.055,-0.8442193829489729,23.0
0.056,-1.0149612985907468,23.0
0.057,-1.1792670914489216,23.0
0.058,-1.3342191008315725,23.0
0.059000000000000004,-1.477065212187408,23.0
0.06,-1.6052753074652737,23.0
0.061,-1.7165931461106874,23.0
0.062,-1.8090825967721806,23.0
0.063,-1.8811672574485054,23.0
0.064,-1.9316626395239496,23.0
0.065,-1.9598002460426747,23.0
0.066,-1.9652430434346826,23.0
0.067,-1.948092005205769,23.0
0.068,-1.9088835921037846,23.0
0.069,-1.8485782220962945,23.0
0.07,-1.7685399712040613,23.0
0.07100000000000001,-1.6705079289175284,23.0
0.07200000000000001,-1.5565598057714873,23.0
0.073,-1.4290685520421853,23.0
0.074,-1.2906528920970446,23.0
0.075,-1.14412280563537,23.0
0.076,-0.9924210922676011,23.0
0.077,-0.838562237397825,23.0
0.078,-0.6855698535000523,23.0
0.079,-0.5364140004434573,23.0
0.08,-0.39394969090925513,23.0
0.081,-0.2608578621026242,23.0
0.082,-0.13959004341516057,23.0
0.083,-0.03231787251175133,23.0
0.084,0.0591114888903036,23.0
0.085,0.133213111402381,23.0
0.08600000000000001,0.18889444082577445,23.0
0.08700000000000001,0.22547720065740318,23.0
0.088,0.24271059931373185,23.0
0.089,0.24077556853699944,23.0
0.09,0.22027994653733118,23.0
0.091,0.18224470831229278,23.0
0.092,0.12808153233384834,23.0
0.093,0.059562173508009075,23.0
0.094,-0.021219716772971742,23.0
0.095,-0.11189352511558892,23.0
0.096,-0.2098624258754354,23.0
0.097,-0.31235888558608893,23.0
0.098,-0.41650376228053954,23.0
0.099,-0.5193677649039925,23.0
0.1,-0.6180339887498928,23.0
0.101,-0.7096602203592768,23.0
0.10200000000000001,-0.791539710076138,23.0
0.10300000000000001,-0.8611591423495554,23.0
0.10400000000000001,-0.9162525922516616,23.0
0.105,-0.9548503403224579,23.0
0.106,-0.9753215250142285,23.0
0.107,-0.9764097404556652,23.0
0.108,-0.9572608343113652,23.0
0.109,-0.9174423231099673,23.0
0.11,-0.8569540171643846,23.0
0.111,-0.7762296304670705,23.0
0.112,-0.6761293388914918,23.0
0.113,-0.5579234387497133,23.0
0.114,-0.42326744331087257,23.0
0.115,-0.2741691334076845,23.0
0.116,-0.11294824602649378,23.0
0.117,0.05781036170725845,23.0
0.11800000000000001,0.235309099672106,23.0
0.11900000000000001,0.4165944937713342,23.0
0.12,0.5986173145083047,23.0
0.121,0.7782947343644693,23.0
0.122,0.9525732208691212,23.0
0.123,1.1184908568445238,23.0
0.124,1.273237791178539,23.0
0.125,1.4142135623730925,23.0
0.126,1.5390801022290492,23.0
0.127,1.6458093169999057,23.0
0.128,1.7327242563017098,23.0
0.129,1.7985330136509234,23.0
0.13,1.8423546539302866,23.0
0.131,1.8637366291985202,23.0
0.132,1.8626633216001216,23.0
0.133,1.839555536999327,23.0
0.134,1.7952609615039852,23.0
0.135,1.7310357813299164,23.0
0.136,1.6485178505594473,23.0
0.137,1.5496919674310092,23.0
0.138,1.4368479841896842,23.0
0.139,1.312532624803942,23.0
0.14,1.1794960159002024,23.0
0.14100000000000001,1.0406340463518928,23.0
0.14200000000000002,0.8989277577893708,23.0
0.14300000000000002,0.7573810300607315,23.0
0.14400000000000002,0.6189578610842166,23.0
0.145,0.4865205488527137,23.0
0.146,0.36277006440595394,23.0
0.147,0.25018985877277145,23.0
0.148,0.15099427515815056,23.0
0.149,0.06708264150477694,23.0
0.15,1.4432899320127035e-15,23.0
0.151,-0.04909470840080543,23.0
0.152,-0.07945234191742945,23.0
0.153,-0.09074864520161019,23.0
0.154,-0.0830904123983216,23.0
0.155,-0.05701259868003894,23.0
0.156,-0.013466441752550629,23.0
0.157,0.046201157623744105,23.0
0.158,0.12027656470236381,23.0
0.159,0.2067160446602886,23.0
0.16,0.3031893358563365,23.0
0.161,0.40712925216520063,23.0
0.162,0.5157862783134968,23.0
0.163,0.6262870179475617,23.0
0.164,0.735695273742154,23.0
0.165,0.8410744838913581,23.0
0.166,0.9395502109545804,23.0
0.167,1.0283713778522108,23.0
0.168,1.1049689718429863,23.0
0.169,1.1670109900250694,23.0
0.17,1.2124524781866932,23.0
0.171,1.239579617058447,23.0
0.17200000000000001,1.2470469340560613,23.0
0.17300000000000001,1.2339068618649132,23.0
0.17400000000000002,1.1996310247182216,23.0
0.17500000000000002,1.1441228056353678,23.0
0.176,1.0677209296201262,23.0
0.177,0.9711939850826091,23.0
0.178,0.855725994639151,23.0
0.179,0.7228933330233366,23.0
0.18,0.5746334702193803,23.0
0.181,0.41320618834545164,23.0
0.182,0.2411480777164471,23.0
0.183,0.061221257632528114,23.0
0.184,-0.12364261215023732,23.0
0.185,-0.3104018651173543,23.0
0.186,-0.4959666687824831,23.0
0.187,-0.6772618863598504,23.0
0.188,-0.8512896518036908,23.0
0.189,-1.015190356633489,23.0
0.19,-1.1663007800304028,23.0
0.191,-1.3022081531972969,23.0
0.192,-1.4207990336810243,23.0
0.193,-1.5203019734957184,23.0
0.194,-1.5993230942053738,23.0
0.195,-1.6568738299267312,23.0
0.196,-1.6923902624188223,23.0
0.197,-1.7057436476303822,23.0
0.198,-1.6972419166289692,23.0
0.199,-1.6676221219090441,23.0
0.2,-1.6180339887498945,23.0
0.201,-1.5500149166350008,23.0
0.202,-1.46545695388826,23.0
0.203,-1.36656643591589,23.0
0.20400000000000001,-1.2558171302796222,23.0
0.20500000000000002,-1.135897867080522,23.0
0.20600000000000002,-1.0096557479845487,23.0
0.20700000000000002,-0.8800361192758908,23.0
0.20800000000000002,-0.7500205616640319,23.0
0.209,-0.6225641907908729,23.0
0.21,-0.5005335766269767,23.0
0.211,-0.38664657691362814,23.0
0.212,-0.2834153397720153,23.0
0.213,-0.1930936643978567,23.0
0.214,-0.11762981776886494,23.0
0.215,-0.058625791411507144,23.0
0.216,-0.017303847876367295,23.0
0.217,0.005518945539161213,23.0
0.218,0.009447664935304911,23.0
0.219,-0.005482393343344993,23.0
0.22,-0.038806675240379174,23.0
0.221,-0.08964135039434074,23.0
0.222,-0.1567021037562467,23.0
0.223,-0.2383313449473099,23.0
0.224,-0.3325332672627266,23.0
0.225,-0.4370160244488205,23.0
0.226,-0.5492401448623176,23.0
0.227,-0.6664721724579485,23.0
0.228,-0.7858424149584907,23.0
0.229,-0.9044055938138299,23.0
0.23,-1.0192031299406454,23.0
0.231,-1.127325765016138,23.0
0.232,-1.2259752109907887,23.0
0.233,-1.3125235406355427,23.0
0.234,-1.384569078927618,23.0
0.23500000000000001,-1.4399876279275396,23.0
0.23600000000000002,-1.47697795498864,23.0
0.23700000000000002,-1.4941005936440945,23.0
0.23800000000000002,-1.4903091458436286,23.0
0.23900000000000002,-1.4649734304582664,23.0
0.24,-1.4178939928795524,23.0
0.241,-1.3493076705674074,23.0
0.242,-1.2598840957954347,23.0
0.243,-1.1507132057178575,23.0
0.244,-1.0232840173013478,23.0
0.245,-0.8794551067201974,23.0
0.246,-0.7214174057095462,23.0
0.247,-0.5516500875040893,23.0
0.248,-0.37287045902072424,23.0
0.249,-0.18797890087012148,23.0
0.25,-1.959434878635765e-15,23.0
0.251,0.1879789008701176,23.0
0.252,0.3728704590207204,23.0
0.253,0.5516500875040857,23.0
0.254,0.7214174057095427,23.0
0.255,0.8794551067201943,23.0
0.256,1.0232840173013449,23.0
0.257,1.150713205717855,23.0
0.258,1.2598840957954327,23.0
0.259,1.3493076705674059,23.0
0.26,1.417893992879551,23.0
0.261,1.464973430458267,23.0
0.262,1.4903091458436297,23.0
0.263,1.4941005936440945,23.0
0.264,1.4769779549886386,23.0
0.265,1.4399876279275365,23.0
0.266,1.3845690789276157,23.0
0.267,1.3125235406355455,23.0
0.268,1.2259752109907918,23.0
0.269,1.1273257650161348,23.0
0.27,1.0192031299406406,23.0
0.271,0.9044055938138333,23.0
0.272,0.785842414958493,23.0
0.273,0.6664721724579449,23.0
0.274,0.5492401448623132,23.0
0.275,0.4370160244488171,23.0
0.276,0.33253326726272936,23.0
0.277,0.23833134494731234,23.0
0.278,0.15670210375624438,23.0
0.279,0.0896413503943384,23.0
0.28,0.038806675240380395,23.0
0.281,0.0054823933433454375,23.0
0.28200000000000003,-0.009447664935304467,23.0
0.28300000000000003,-0.005518945539160991,23.0
0.28400000000000003,0.017303847876368184,23.0
0.28500000000000003,0.058625791411506145,23.0
0.28600000000000003,0.11762981776886361,23.0
0.28700000000000003,0.19309366439785502,23.0
0.28800000000000003,0.28341533977201827,23.0
0.289,0.38664657691362025,23.0
0.29,0.5005335766269685,23.0
0.291,0.6225641907908637,23.0
0.292,0.7500205616640292,23.0
0.293,0.8800361192758811,23.0
0.294,1.009655747984539,23.0
0.295,1.1358978670805195,23.0
0.296,1.2558171302796197,23.0
0.297,1.366566435915888,23.0
0.298,1.4654569538882525,23.0
0.299,1.5500149166349995,23.0
0.3,1.6180339887498931,23.0
0.301,1.6676221219090435,23.0
0.302,1.6972419166289687,23.0
0.303,1.7057436476303809,23.0
0.304,1.6923902624188227,23.0
0.305,1.6568738299267323,23.0
0.306,1.5993230942053753,23.0
0.307,1.520301973495723,23.0
0.308,1.4207990336810266,23.0
0.309,1.3022081531972995,23.0
0.31,1.1663007800304057,23.0
0.311,1.0151903566334923,23.0
0.312,0.8512896518037005,23.0
0.313,0.6772618863598541,23.0
0.314,0.49596666878248685,23.0
0.315,0.3104018651173582,23.0
0.316,0.12364261215024826,23.0
0.317,-0.06122125763251743,23.0
0.318,-0.24114807771644342,23.0
0.319,-0.41320618834544826,23.0
0.32,-0.5746334702193772,23.0
0.321,-0.7228933330233288,23.0
0.322,-0.8557259946391484,23.0
0.323,-0.9711939850826087,23.0
0.324,-1.0677209296201242,23.0
0.325,-1.1441228056353692,23.0
0.326,-1.1996310247182225,23.0
0.327,-1.2339068618649143,23.0
0.328,-1.247046934056061,23.0
0.329,-1.2395796170584443,23.0
0.33,-1.2124524781866954,23.0
0.331,-1.1670109900250734,23.0
0.332,-1.104968971842991,23.0
0.333,-1.0283713778522066,23.0
0.334,-0.9395502109545772,23.0
0.335,-0.84107448389136,23.0
0.336,-0.7356952737421563,23.0
0.337,-0.6262870179475638,23.0
0.338,-0.5157862783134919,23.0
0.339,-0.407129252165204,23.0
0.34,-0.30318933585634095,23.0
0.341,-0.2067160446602927,23.0
0.342,-0.12027656470236536,23.0
0.343,-0.046201157623741884,23.0
0.34400000000000003,0.013466441752550518,23.0
0.34500000000000003,0.05701259868003827,23.0
0.34600000000000003,0.08309041239832138,23.0
0.34700000000000003,0.09074864520161108,23.0
0.34800000000000003,0.079452341917429,23.0
0.34900000000000003,0.04909470840080499,23.0
0.35000000000000003,-1.3322676295501878e-15,23.0
0.35100000000000003,-0.06708264150477528,23.0
0.352,-0.1509942751581479,23.0
0.353,-0.2501898587727641,23.0
0.354,-0.36277006440594595,23.0
0.355,-0.4865205488527049,23.0
0.356,-0.6189578610842139,23.0
0.357,-0.7573810300607218,23.0
0.358,-0.898927757789368,23.0
0.359,-1.04063404635189,23.0
0.36,-1.1794960159001997,23.0
0.361,-1.3125326248039395,23.0
0.362,-1.4368479841896755,23.0
0.363,-1.549691967431007,23.0
0.364,-1.6485178505594453,23.0
0.365,-1.7310357813299144,23.0
0.366,-1.7952609615039794,23.0
0.367,-1.8395555369993248,23.0
0.368,-1.8626633216001225,23.0
0.369,-1.8637366291985211,23.0
0.37,-1.8423546539302877,23.0
0.371,-1.7985330136509265,23.0
0.372,-1.7327242563017111,23.0
0.373,-1.645809316999907,23.0
0.374,-1.5390801022290503,23.0
0.375,-1.4142135623730931,23.0
0.376,-1.2732377911785453,23.0
0.377,-1.118490856844529,23.0
0.378,-0.952573220869126,23.0
0.379,-0.7782947343644737,23.0
0.38,-0.5986173145083163,23.0
0.381,-0.4165944937713372,23.0
0.382,-0.2353090996721082,23.0
0.383,-0.05781036170725973,23.0
0.384,0.11294824602649362,23.0
0.385,0.2741691334076846,23.0
0.386,0.42326744331086713,23.0
0.387,0.5579234387497088,23.0
0.388,0.6761293388914886,23.0
0.389,0.7762296304670686,23.0
0.39,0.8569540171643839,23.0
0.391,0.917442323109968,23.0
0.392,0.9572608343113672,23.0
0.393,0.9764097404556668,23.0
0.394,0.9753215250142322,23.0
0.395,0.9548503403224559,23.0
0.396,0.9162525922516593,23.0
0.397,0.8611591423495539,23.0
0.398,0.7915397100761402,23.0
0.399,0.7096602203592792,23.0
0.4,0.6180339887498963,23.0
0.401,0.5193677649039935,23.0
0.402,0.41650376228053954,23.0
0.403,0.31235888558609504,23.0
0.404,0.20986242587543408,23.0
0.405,0.11189352511558831,23.0
0.406,0.02121971677297041,23.0
0.40700000000000003,-0.05956217350801163,23.0
0.40800000000000003,-0.12808153233384656,23.0
0.40900000000000003,-0.18224470831229167,23.0
0.41000000000000003,-0.22027994653733018,23.0
0.41100000000000003,-0.24077556853699833,23.0
0.41200000000000003,-0.24271059931372907,23.0
0.41300000000000003,-0.22547720065740495,23.0
0.41400000000000003,-0.18889444082577556,23.0
0.41500000000000004,-0.1332131114023809,23.0
0.41600000000000004,-0.05911148889030193,23.0
0.417,0.032317872511747225,23.0
0.418,0.13959004341515657,23.0
0.419,0.26085786210261874,23.0
0.42,0.3939496909092509,23.0
0.421,0.5364140004434472,23.0
0.422,0.6855698535000436,23.0
0.423,0.8385622373978181,23.0
0.424,0.9924210922675961,23.0
0.425,1.14412280563536,23.0
0.426,1.2906528920970368,23.0
0.427,1.4290685520421795,23.0
0.428,1.5565598057714847,23.0
0.429,1.6705079289175275,23.0
0.43,1.7685399712040564,23.0
0.431,1.8485782220962914,23.0
0.432,1.9088835921037801,23.0
0.433,1.9480920052057669,23.0
0.434,1.9652430434346813,23.0
0.435,1.9598002460426744,23.0
0.436,1.93166263952395,23.0
0.437,1.8811672574485079,23.0
0.438,1.8090825967721833,23.0
0.439,1.7165931461106974,23.0
0.44,1.6052753074652841,23.0
0.441,1.4770652121874164,23.0
0.442,1.3342191008315814,23.0
0.443,1.1792670914489287,23.0
0.444,1.0149612985907526,23.0
0.445,0.8442193829489761,23.0
0.446,0.6700647067081515,23.0
0.447,0.495564340336505,23.0
0.448,0.32376621122998395,23.0
0.449,0.15763670241066552,23.0
0.45,8.548717289613705e-15,23.0
0.451,-0.14651954836503667,23.0
0.452,-0.27955086486632574,23.0
0.453,-0.39702425114198026,23.0
0.454,-0.4972131758056803,23.0
0.455,-0.5787688713039664,23.0
0.456,-0.6407470215473594,23.0
0.457,-0.682625986705919,23.0
0.458,-0.704316188050869,23.0
0.459,-0.7061604600716043,23.0
0.46,-0.6889253654581426,23.0
0.461,-0.6537836569863231,23.0
0.462,-0.6022882549476389,23.0
0.463,-0.5363382856790393,23.0
0.464,-0.4581378922819965,23.0
0.465,-0.3701486793234292,23.0
0.466,-0.27503678604234905,23.0
0.467,-0.1756156945769029,23.0
0.468,-0.07478596864414822,23.0
0.46900000000000003,0.024526817906702497,23.0
0.47000000000000003,0.11943466551981746,23.0
0.47100000000000003,0.20714893851121424,23.0
0.47200000000000003,0.2850400685673437,23.0
0.47300000000000003,0.3506939244492428,23.0
0.47400000000000003,0.401963669723895,23.0
0.47500000000000003,0.4370160244488178,23.0
0.47600000000000003,0.4543709634464506,23.0
0.47700000000000004,0.45293402068859445,23.0
0.47800000000000004,0.4320205235138319,23.0
0.47900000000000004,0.39137124870797346,23.0
0.48,0.3311591713799493,23.0
0.481,0.25198716333340343,23.0
0.482,0.1548766863948121,23.0
0.483,0.041247713976182765,23.0
0.484,-0.08710970289041509,23.0
0.485,-0.2280716345235525,23.0
0.486,-0.3792234840662452,23.0
0.487,-0.5379093126653773,23.0
0.488,-0.7012862519979353,23.0
0.489,-0.8663828716170291,23.0
0.49,-1.030160286030308,23.0
0.491,-1.1895747291904772,23.0
0.492,-1.3416402933675262,23.0
0.493,-1.4834905258239446,23.0
0.494,-1.6124376004027123,23.0
0.495,-1.726027831569203,23.0
0.496,-1.822092374571337,23.0
0.497,-1.8987920556106168,23.0
0.498,-1.9546553981605437,23.0
0.499,-1.9886090532807736,23.0
0.5,-2.0,23.0
0.501,-1.9886090532807772,23.0
0.502,-1.9546553981605508,23.0
0.503,-1.8987920556106264,23.0
0.504,-1.82209237457135,23.0
0.505,-1.7260278315692184,23.0
0.506,-1.6124376004027299,23.0
0.507,-1.4834905258239663,23.0
0.508,-1.3416402933675493,23.0
0.509,-1.189574729190502,23.0
0.51,-1.0301602860303338,23.0
0.511,-0.8663828716170551,23.0
0.512,-0.7012862519979576,23.0
0.513,-0.5379093126653988,23.0
0.514,-0.3792234840662653,23.0
0.515,-0.22807163452357082,23.0
0.516,-0.08710970289043585,23.0
0.517,0.04124771397616411,23.0
0.518,0.15487668639479624,23.0
0.519,0.25198716333339044,23.0
0.52,0.3311591713799392,23.0
0.521,0.3913712487079738,23.0
0.522,0.4320205235138338,23.0
0.523,0.4529340206886001,23.0
0.524,0.45437096344645966,23.0
0.525,0.43701602444883,23.0
0.526,0.4019636697239037,23.0
0.527,0.35069392444925085,23.0
0.528,0.2850400685673527,23.0
0.529,0.20714893851122396,23.0
0.53,0.11943466551982779,23.0
0.531,0.02452681790671324,23.0
0.532,-0.07478596864413724,23.0
0.533,-0.17561569457687773,23.0
0.534,-0.27503678604232423,23.0
0.535,-0.37014867932341255,23.0
0.536,-0.45813789228197405,23.0
0.537,-0.53633828567903,23.0
0.538,-0.6022882549476307,23.0
0.539,-0.6537836569863159,23.0
0.54,-0.6889253654581364,23.0
0.541,-0.7061604600715994,23.0
0.542,-0.7043161880508624,23.0
0.543,-0.6826259867059159,23.0
0.544,-0.6407470215473661,23.0
0.545,-0.5787688713039698,23.0
0.546,-0.497213175805682,23.0
0.547,-0.39702425114198314,23.0
0.548,-0.27955086486632996,23.0
0.549,-0.14651954836504189,23.0
0.55,2.3314683517128287e-15,23.0
0.551,0.15763670241064603,23.0
0.552,0.3237662112299631,23.0
0.553,0.495564340336478,23.0
0.554,0.6700647067081293,23.0
0.555,0.8442193829489681,23.0
0.556,1.0149612985907446,23.0
0.557,1.1792670914489212,23.0
0.558,1.334219100831574,23.0
0.559,1.47706521218741,23.0
0.56,1.605275307465269,23.0
0.561,1.7165931461106845,23.0
0.562,1.8090825967721769,23.0
0.5630000000000001,1.8811672574485032,23.0
0.5640000000000001,1.9316626395239487,23.0
0.5650000000000001,1.9598002460426747,23.0
0.5660000000000001,1.965243043434683,23.0
0.5670000000000001,1.9480920052057695,23.0
0.5680000000000001,1.908883592103784,23.0
0.5690000000000001,1.8485782220962999,23.0
0.5700000000000001,1.7685399712040668,23.0
0.5710000000000001,1.6705079289175344,23.0
0.5720000000000001,1.5565598057714927,23.0
0.5730000000000001,1.4290685520421877,23.0
0.5740000000000001,1.2906528920970453,23.0
0.5750000000000001,1.144122805635369,23.0
0.5760000000000001,0.992421092267598,23.0
0.577,0.8385622373978499,23.0
0.578,0.6855698535000747,23.0
0.579,0.536414000443477,23.0
0.58,0.3939496909092728,23.0
0.581,0.26085786210263884,23.0
0.582,0.13959004341517123,23.0
0.583,0.03231787251176266,23.0
0.584,-0.05911148889029527,23.0
0.585,-0.13321311140237524,23.0
0.586,-0.188894440825769,23.0
0.587,-0.22547720065740162,23.0
0.588,-0.24271059931373384,23.0
0.589,-0.24077556853700433,23.0
0.59,-0.2202799465373384,23.0
0.591,-0.18224470831230188,23.0
0.592,-0.1280815323338531,23.0
0.593,-0.059562173508014515,23.0
0.594,0.021219716772966968,23.0
0.595,0.11189352511558442,23.0
0.596,0.20986242587541615,23.0
0.597,0.3123588855860701,23.0
0.598,0.4165037622805216,23.0
0.599,0.5193677649039757,23.0
0.6,0.6180339887498791,23.0
0.601,0.7096602203592629,23.0
0.602,0.7915397100761321,23.0
0.603,0.8611591423495525,23.0
0.604,0.9162525922516589,23.0
0.605,0.9548503403224492,23.0
0.606,0.9753215250142214,23.0
0.607,0.976409740455661,23.0
0.608,0.9572608343113639,23.0
0.609,0.9174423231099669,23.0
0.61,0.8569540171643852,23.0
0.611,0.7762296304670793,23.0
0.612,0.6761293388914982,23.0
0.613,0.5579234387497195,23.0
0.614,0.42326744331088856,23.0
